freq,psd_x,psd_y,psd_z,psd_xyz
0.0,3.496e+02,6.994e+00,1.617e+01,3.727e+02
1.6,3.512e+02,2.615e+01,4.947e+01,4.268e+02
3.1,2.005e+02,2.965e+01,5.102e+01,2.812e+02
4.7,5.387e+02,2.684e+01,5.158e+01,6.171e+02
6.3,1.420e+03,2.651e+01,5.447e+01,1.501e+03
7.9,2.108e+03,2.555e+01,5.616e+01,2.189e+03
9.4,2.956e+03,2.533e+01,5.087e+01,3.032e+03
11.0,3.967e+03,2.561e+01,5.350e+01,4.046e+03
12.6,5.010e+03,2.644e+01,4.749e+01,5.084e+03
14.1,6.296e+03,2.660e+01,4.806e+01,6.371e+03
15.7,8.050e+03,2.406e+01,4.954e+01,8.124e+03
17.3,9.867e+03,2.284e+01,5.065e+01,9.940e+03
18.9,1.249e+04,2.358e+01,5.321e+01,1.257e+04
20.4,1.439e+04,2.570e+01,5.381e+01,1.447e+04
22.0,1.826e+04,2.563e+01,5.415e+01,1.834e+04
23.6,2.160e+04,2.531e+01,5.281e+01,2.167e+04
25.1,2.455e+04,2.417e+01,4.465e+01,2.462e+04
26.7,3.395e+04,3.372e+01,4.806e+01,3.403e+04
28.3,3.846e+04,6.480e+01,5.048e+01,3.857e+04
29.9,4.090e+04,1.039e+02,5.420e+01,4.105e+04
31.4,4.547e+04,1.108e+02,7.697e+01,4.566e+04
33.0,5.605e+04,1.016e+02,1.510e+02,5.631e+04
34.6,7.130e+04,1.213e+02,3.275e+02,7.175e+04
36.1,8.441e+04,1.650e+02,5.331e+02,8.511e+04
37.7,1.044e+05,1.928e+02,6.374e+02,1.052e+05
39.3,1.284e+05,2.022e+02,6.162e+02,1.293e+05
40.8,1.664e+05,1.921e+02,5.564e+02,1.672e+05
42.4,2.138e+05,1.630e+02,4.667e+02,2.144e+05
44.0,2.868e+05,1.513e+02,7.851e+02,2.877e+05
45.6,4.056e+05,1.216e+02,2.175e+03,4.079e+05
47.1,5.359e+05,1.393e+02,7.993e+03,5.441e+05
48.7,6.064e+05,2.314e+02,1.910e+04,6.257e+05
50.3,6.021e+05,1.641e+02,1.853e+04,6.208e+05
51.8,6.276e+05,1.093e+02,9.826e+03,6.375e+05
53.4,5.979e+05,1.734e+02,5.893e+03,6.040e+05
55.0,5.146e+05,2.376e+02,3.806e+03,5.187e+05
56.6,4.566e+05,2.174e+02,2.938e+03,4.597e+05
58.1,3.130e+05,1.270e+02,2.029e+03,3.151e+05
59.7,2.693e+05,2.110e+02,1.599e+03,2.711e+05
61.3,2.360e+05,2.701e+02,1.148e+03,2.374e+05
62.8,1.954e+05,1.729e+02,1.308e+03,1.968e+05
64.4,1.819e+05,1.456e+02,1.991e+03,1.840e+05
66.0,1.540e+05,4.531e+02,2.722e+03,1.572e+05
67.6,1.066e+05,1.017e+03,2.915e+03,1.106e+05
69.1,1.022e+05,1.706e+03,3.548e+03,1.075e+05
70.7,7.796e+04,1.623e+03,3.144e+03,8.272e+04
72.3,8.416e+04,1.536e+03,3.280e+03,8.898e+04
73.8,7.990e+04,8.997e+02,2.804e+03,8.360e+04
75.4,8.435e+04,7.184e+02,3.349e+03,8.841e+04
77.0,7.293e+04,1.246e+03,4.319e+03,7.849e+04
78.6,7.347e+04,3.146e+03,6.825e+03,8.344e+04
80.1,7.041e+04,5.651e+03,9.214e+03,8.528e+04
81.7,6.102e+04,7.236e+03,9.759e+03,7.802e+04
83.3,6.099e+04,9.535e+03,1.055e+04,8.107e+04
84.8,6.632e+04,1.185e+04,1.149e+04,8.967e+04
86.4,5.936e+04,1.141e+04,9.745e+03,8.051e+04
88.0,4.805e+04,8.946e+03,6.794e+03,6.379e+04
89.6,4.474e+04,6.732e+03,4.820e+03,5.630e+04
91.1,4.656e+04,5.107e+03,3.813e+03,5.548e+04
92.7,4.180e+04,3.433e+03,2.732e+03,4.796e+04
94.3,3.729e+04,1.905e+03,2.252e+03,4.144e+04
95.8,3.279e+04,1.936e+03,2.877e+03,3.760e+04
97.4,3.005e+04,2.342e+03,3.591e+03,3.598e+04
99.0,2.636e+04,2.109e+03,3.838e+03,3.230e+04
100.6,2.365e+04,2.421e+03,4.232e+03,3.030e+04
102.1,2.340e+04,2.268e+03,4.444e+03,3.012e+04
103.7,2.452e+04,2.001e+03,4.304e+03,3.082e+04
105.3,2.099e+04,1.596e+03,3.296e+03,2.588e+04
106.8,2.499e+04,1.096e+03,4.054e+03,3.014e+04
108.4,3.208e+04,7.698e+02,5.405e+03,3.826e+04
110.0,4.276e+04,8.217e+02,7.042e+03,5.063e+04
111.6,6.327e+04,1.052e+03,9.657e+03,7.398e+04
113.1,1.073e+05,1.426e+03,1.309e+04,1.218e+05
114.7,1.314e+05,1.272e+03,1.285e+04,1.455e+05
116.3,2.004e+05,1.089e+03,1.695e+04,2.185e+05
117.8,2.732e+05,1.067e+03,1.986e+04,2.941e+05
119.4,3.881e+05,1.265e+03,2.359e+04,4.130e+05
121.0,5.609e+05,1.704e+03,2.979e+04,5.924e+05
122.5,7.019e+05,2.433e+03,3.384e+04,7.382e+05
124.1,8.589e+05,3.544e+03,3.821e+04,9.007e+05
125.7,1.205e+06,5.894e+03,4.872e+04,1.259e+06
127.3,1.333e+06,7.448e+03,5.011e+04,1.391e+06
128.8,1.458e+06,1.013e+04,4.967e+04,1.518e+06
130.4,1.395e+06,1.272e+04,4.532e+04,1.454e+06
132.0,9.328e+05,9.332e+03,2.884e+04,9.710e+05
133.5,4.390e+05,4.217e+03,1.264e+04,4.558e+05
135.1,2.072e+05,2.683e+03,5.351e+03,2.152e+05
136.7,1.284e+05,2.235e+03,3.138e+03,1.338e+05
138.3,1.291e+05,3.385e+03,2.796e+03,1.352e+05
139.8,1.095e+05,3.804e+03,2.435e+03,1.157e+05
141.4,5.758e+04,2.458e+03,1.434e+03,6.148e+04
143.0,7.834e+04,4.144e+03,2.244e+03,8.473e+04
144.5,6.707e+04,3.836e+03,2.220e+03,7.313e+04
146.1,5.477e+04,3.282e+03,1.932e+03,5.998e+04
147.7,4.655e+04,2.972e+03,1.790e+03,5.132e+04
149.3,4.136e+04,3.149e+03,1.792e+03,4.630e+04
150.8,3.634e+04,3.730e+03,1.851e+03,4.193e+04
152.4,3.061e+04,4.542e+03,2.068e+03,3.722e+04
154.0,2.559e+04,4.880e+03,2.232e+03,3.271e+04
155.5,2.031e+04,4.806e+03,2.375e+03,2.749e+04
157.1,1.524e+04,4.671e+03,2.444e+03,2.236e+04
158.7,1.076e+04,4.241e+03,2.179e+03,1.718e+04
160.3,7.245e+03,4.383e+03,2.167e+03,1.380e+04
161.8,4.716e+03,4.126e+03,2.027e+03,1.087e+04
163.4,3.424e+03,3.926e+03,1.953e+03,9.303e+03
165.0,2.242e+03,3.133e+03,1.624e+03,6.998e+03
166.5,1.484e+03,2.414e+03,1.267e+03,5.166e+03
168.1,1.134e+03,2.071e+03,1.095e+03,4.300e+03
169.7,1.018e+03,2.074e+03,1.113e+03,4.205e+03
171.3,1.226e+03,1.672e+03,7.844e+02,3.682e+03
172.8,1.986e+03,1.811e+03,7.984e+02,4.595e+03
174.4,2.344e+03,1.980e+03,8.305e+02,5.154e+03
176.0,1.984e+03,1.969e+03,7.741e+02,4.727e+03
177.5,1.905e+03,1.558e+03,6.488e+02,4.112e+03
179.1,1.839e+03,1.876e+03,7.847e+02,4.500e+03
180.7,1.629e+03,1.603e+03,7.125e+02,3.945e+03
182.3,1.671e+03,1.930e+03,8.165e+02,4.418e+03
183.8,1.790e+03,2.178e+03,8.675e+02,4.836e+03
185.4,1.896e+03,2.517e+03,9.111e+02,5.325e+03
187.0,2.139e+03,2.429e+03,8.796e+02,5.448e+03
188.5,2.284e+03,2.120e+03,7.723e+02,5.177e+03
190.1,2.427e+03,1.858e+03,7.208e+02,5.006e+03
191.7,2.208e+03,1.803e+03,6.811e+02,4.692e+03
193.2,2.841e+03,1.910e+03,7.331e+02,5.484e+03
194.8,3.373e+03,1.889e+03,7.855e+02,6.047e+03
196.4,3.421e+03,2.252e+03,8.660e+02,6.539e+03
198.0,3.960e+03,2.140e+03,9.115e+02,7.011e+03
199.5,5.647e+03,1.702e+03,9.680e+02,8.318e+03
